TwoTheta Intensity
3.9986 33.188
4.0249 31.833
4.0512 29.313
4.0774 29.542
4.1037 28.271
4.1300 26.146
4.1563 25.958
4.1825 24.729
4.2088 23.896
4.2351 24.427
4.2613 23.177
4.2876 23.365
4.3139 23.188
4.3402 22.375
4.3664 22.865
4.3927 21.646
4.4190 20.896
4.4453 20.979
4.4715 21.156
4.4978 20.875
4.5241 21.094
4.5503 20.708
4.5766 21.333
4.6029 20.438
4.6292 20.594
4.6554 21.198
4.6817 20.073
4.7080 19.792
4.7342 19.979
4.7605 19.521
4.7868 19.771
4.8131 18.781
4.8393 19.188
4.8656 20.625
4.8919 18.854
4.9182 19.469
4.9444 18.969
4.9707 19.010
4.9970 17.875
5.0232 18.563
5.0495 18.688
5.0758 18.281
5.1021 18.042
5.1283 17.417
5.1546 18.792
5.1809 18.594
5.2071 16.802
5.2334 17.656
5.2597 17.469
5.2860 17.406
5.3122 17.448
5.3385 17.510
5.3648 17.271
5.3911 16.646
5.4173 17.510
5.4436 16.885
5.4699 16.802
5.4961 17.042
5.5224 16.167
5.5487 17.313
5.5750 16.052
5.6012 15.979
5.6275 16.250
5.6538 17.156
5.6800 17.333
5.7063 16.927
5.7326 16.385
5.7589 17.042
5.7851 15.917
5.8114 16.427
5.8377 15.490
5.8640 16.573
5.8902 16.542
5.9165 16.292
5.9428 15.719
5.9690 15.125
5.9953 17.115
6.0216 16.604
6.0479 16.229
6.0741 16.479
6.1004 16.063
6.1267 16.927
6.1529 16.073
6.1792 15.979
6.2055 17.115
6.2318 17.313
6.2580 15.771
6.2843 16.479
6.3106 16.073
6.3369 16.396
6.3631 16.667
6.3894 16.969
6.4157 15.938
6.4419 16.156
6.4682 16.375
6.4945 16.104
6.5208 16.990
6.5470 16.990
6.5733 17.135
6.5996 16.719
6.6258 15.771
6.6521 16.552
6.6784 17.417
6.7047 17.354
6.7309 16.417
6.7572 16.833
6.7835 16.698
6.8098 16.469
6.8360 16.813
6.8623 17.302
6.8886 16.479
6.9148 16.375
6.9411 16.719
6.9674 16.708
6.9937 17.500
7.0199 17.333
7.0462 17.010
7.0725 17.010
7.0987 17.073
7.1250 16.583
7.1513 17.604
7.1776 16.823
7.2038 17.250
7.2301 17.500
7.2564 17.438
7.2827 16.958
7.3089 17.042
7.3352 16.719
7.3615 16.792
7.3877 16.760
7.4140 17.823
7.4403 16.823
7.4666 18.125
7.4928 17.594
7.5191 16.563
7.5454 16.313
7.5717 16.927
7.5979 16.667
7.6242 17.885
7.6505 18.167
7.6767 17.333
7.7030 17.115
7.7293 16.927
7.7556 17.375
7.7818 17.458
7.8081 17.667
7.8344 16.875
7.8606 16.990
7.8869 17.042
7.9132 16.958
7.9395 17.302
7.9657 17.344
7.9920 17.104
8.0183 17.094
8.0446 17.010
8.0708 16.896
8.0971 17.927
8.1234 16.958
8.1496 17.177
8.1759 17.010
8.2022 17.448
8.2285 16.938
8.2547 16.792
8.2810 17.417
8.3073 16.906
8.3335 16.938
8.3598 17.531
8.3861 17.063
8.4124 16.021
8.4386 17.333
8.4649 17.729
8.4912 16.969
8.5175 16.938
8.5437 16.688
8.5700 16.875
8.5963 16.365
8.6225 16.448
8.6488 15.781
8.6751 16.083
8.7014 16.104
8.7276 16.042
8.7539 16.354
8.7802 17.135
8.8064 17.365
8.8327 16.396
8.8590 15.875
8.8853 16.302
8.9115 16.000
8.9378 16.240
8.9641 15.917
8.9904 15.750
9.0166 15.677
9.0429 14.948
9.0692 15.875
9.0954 15.521
9.1217 15.792
9.1480 15.719
9.1743 15.573
9.2005 15.938
9.2268 14.844
9.2531 16.021
9.2793 15.448
9.3056 15.708
9.3319 14.958
9.3582 15.708
9.3844 15.010
9.4107 15.073
9.4370 14.750
9.4633 14.417
9.4895 14.938
9.5158 14.500
9.5421 14.531
9.5683 14.448
9.5946 14.073
9.6209 14.458
9.6472 14.427
9.6734 14.208
9.6997 14.635
9.7260 14.042
9.7522 13.969
9.7785 14.104
9.8048 14.052
9.8311 13.802
9.8573 13.906
9.8836 13.792
9.9099 14.167
9.9362 13.427
9.9624 14.010
9.9887 12.802
10.0150 13.240
10.0412 13.219
10.0675 13.479
10.0938 12.948
10.1201 13.167
10.1463 12.760
10.1726 12.906
10.1989 12.625
10.2251 12.281
10.2514 12.969
10.2777 12.469
10.3040 12.438
10.3302 12.281
10.3565 12.271
10.3828 12.500
10.4091 12.010
10.4353 12.146
10.4616 12.250
10.4879 11.875
10.5141 11.427
10.5404 11.604
10.5667 11.427
10.5930 12.031
10.6192 11.594
10.6455 11.167
10.6718 11.104
10.6980 11.281
10.7243 11.177
10.7506 10.969
10.7769 11.188
10.8031 10.698
10.8294 10.458
10.8557 10.521
10.8820 11.010
10.9082 11.333
10.9345 10.385
10.9608 10.281
10.9870 11.000
11.0133 10.396
11.0396 10.813
11.0659 9.521
11.0921 9.635
11.1184 10.333
11.1447 10.271
11.1709 9.594
11.1972 9.771
11.2235 9.958
11.2498 9.260
11.2760 9.229
11.3023 9.396
11.3286 9.833
11.3549 9.885
11.3811 10.052
11.4074 9.531
11.4337 9.375
11.4599 9.979
11.4862 9.542
11.5125 9.083
11.5388 9.292
11.5650 10.010
11.5913 9.313
11.6176 9.406
11.6438 9.740
11.6701 8.885
11.6964 8.917
11.7227 8.302
11.7489 8.792
11.7752 8.750
11.8015 8.313
11.8278 8.375
11.8540 8.531
11.8803 8.219
11.9066 8.510
11.9328 8.417
11.9591 8.938
11.9854 8.083
12.0117 8.740
12.0379 7.969
12.0642 7.625
12.0905 7.969
12.1167 8.625
12.1430 8.396
12.1693 7.813
12.1956 8.281
12.2218 8.000
12.2481 7.677
12.2744 7.938
12.3007 7.469
12.3269 7.385
12.3532 7.146
12.3795 7.385
12.4057 7.156
12.4320 7.188
12.4583 7.646
12.4846 7.438
12.5108 7.083
12.5371 7.542
12.5634 7.521
12.5896 7.490
12.6159 7.885
12.6422 8.146
12.6685 7.052
12.6947 6.927
12.7210 6.938
12.7473 7.302
12.7736 6.875
12.7998 7.469
12.8261 7.083
12.8524 7.656
12.8786 6.760
12.9049 7.542
12.9312 6.698
12.9575 7.115
12.9837 6.771
13.0100 7.042
13.0363 6.990
13.0625 7.000
13.0888 6.813
13.1151 6.688
13.1414 7.031
13.1676 6.552
13.1939 6.542
13.2202 6.469
13.2465 6.604
13.2727 5.958
13.2990 6.208
13.3253 6.240
13.3515 6.938
13.3778 5.979
13.4041 6.896
13.4304 6.604
13.4566 6.344
13.4829 6.781
13.5092 6.531
13.5354 6.115
13.5617 6.625
13.5880 6.542
13.6143 6.490
13.6405 6.500
13.6668 6.646
13.6931 6.708
13.7194 6.823
13.7456 5.979
13.7719 6.833
13.7982 6.906
13.8244 6.813
13.8507 6.969
13.8770 6.979
13.9033 7.417
13.9295 7.240
13.9558 7.833
13.9821 8.500
14.0083 9.635
14.0346 11.406
14.0609 12.677
14.0872 14.844
14.1134 17.031
14.1397 18.302
14.1660 17.802
14.1923 16.750
14.2185 15.083
14.2448 13.240
14.2711 12.010
14.2973 10.417
14.3236 8.927
14.3499 7.917
14.3762 7.781
14.4024 7.917
14.4287 6.792
14.4550 6.781
14.4812 6.281
14.5075 6.240
14.5338 5.990
14.5601 6.125
14.5863 6.177
14.6126 5.844
14.6389 5.927
14.6652 5.719
14.6914 6.063
14.7177 5.542
14.7440 6.073
14.7702 5.521
14.7965 5.813
14.8228 5.635
14.8491 5.813
14.8753 6.125
14.9016 5.833
14.9279 6.052
14.9542 5.875
14.9804 5.396
15.0067 6.000
15.0330 5.771
15.0592 5.667
15.0855 5.604
15.1118 5.292
15.1381 5.792
15.1643 5.833
15.1906 5.313
15.2169 5.438
15.2431 5.323
15.2694 5.958
15.2957 5.583
15.3220 5.781
15.3482 5.438
15.3745 5.750
15.4008 5.750
15.4271 5.979
15.4533 5.875
15.4796 5.208
15.5059 5.365
15.5321 5.427
15.5584 5.833
15.5847 5.542
15.6110 5.875
15.6372 5.594
15.6635 5.448
15.6898 5.594
15.7160 5.500
15.7423 5.490
15.7686 6.281
15.7949 5.802
15.8211 6.073
15.8474 5.375
15.8737 5.292
15.9000 5.281
15.9262 5.510
15.9525 5.385
15.9788 5.760
16.0050 5.969
16.0313 5.698
16.0576 5.677
16.0839 5.323
16.1101 5.490
16.1364 5.375
16.1627 5.771
16.1889 5.542
16.2152 5.854
16.2415 5.417
16.2678 5.510
16.2940 5.604
16.3203 5.260
16.3466 5.708
16.3729 5.448
16.3991 5.406
16.4254 5.813
16.4517 5.313
16.4779 5.906
16.5042 5.667
16.5305 5.333
16.5568 5.344
16.5830 5.313
16.6093 5.521
16.6356 5.531
16.6618 5.844
16.6881 5.396
16.7144 5.438
16.7407 5.354
16.7669 5.583
16.7932 5.271
16.8195 5.385
16.8458 5.677
16.8720 5.281
16.8983 5.167
16.9246 5.073
16.9508 5.656
16.9771 5.406
17.0034 5.302
17.0297 6.073
17.0559 5.469
17.0822 5.823
17.1085 5.052
17.1347 5.406
17.1610 5.375
17.1873 5.906
17.2136 5.292
17.2398 5.458
17.2661 5.323
17.2924 5.573
17.3187 5.438
17.3449 5.604
17.3712 6.417
17.3975 6.031
17.4237 5.448
17.4500 5.625
17.4763 5.740
17.5026 5.688
17.5288 5.583
17.5551 5.708
17.5814 5.479
17.6076 5.458
17.6339 5.094
17.6602 5.844
17.6865 5.448
17.7127 5.719
17.7390 5.406
17.7653 5.052
17.7916 5.031
17.8178 5.500
17.8441 5.385
17.8704 5.063
17.8966 5.365
17.9229 5.677
17.9492 5.385
17.9755 5.115
18.0017 5.177
18.0280 5.188
18.0543 5.240
18.0805 5.135
18.1068 5.500
18.1331 5.781
18.1594 5.479
18.1856 5.271
18.2119 5.646
18.2382 5.896
18.2645 5.417
18.2907 5.490
18.3170 5.417
18.3433 5.531
18.3695 5.917
18.3958 5.156
18.4221 5.583
18.4484 5.313
18.4746 5.844
18.5009 5.406
18.5272 5.479
18.5534 5.552
18.5797 5.354
18.6060 5.875
18.6323 5.542
18.6585 5.344
18.6848 5.708
18.7111 6.250
18.7374 5.625
18.7636 5.781
18.7899 5.729
18.8162 5.875
18.8424 5.604
18.8687 5.698
18.8950 5.823
18.9213 6.073
18.9475 5.615
18.9738 5.323
19.0001 5.427
19.0263 5.771
19.0526 5.365
19.0789 5.542
19.1052 5.521
19.1314 5.771
19.1577 5.635
19.1840 5.573
19.2103 5.052
19.2365 5.656
19.2628 5.583
19.2891 5.417
19.3153 5.521
19.3416 5.375
19.3679 5.302
19.3942 5.365
19.4204 5.229
19.4467 5.375
19.4730 5.302
19.4992 5.365
19.5255 4.990
19.5518 5.448
19.5781 5.646
19.6043 5.396
19.6306 5.719
19.6569 5.542
19.6832 5.760
19.7094 5.594
19.7357 5.760
19.7620 5.635
19.7882 5.552
19.8145 6.073
19.8408 5.719
19.8671 5.948
19.8933 5.333
19.9196 5.594
19.9459 6.010
19.9721 5.406
19.9984 5.063
20.0247 6.010
20.0510 5.990
20.0772 6.063
20.1035 6.323
20.1298 6.396
20.1561 6.594
20.1823 6.906
20.2086 7.177
20.2349 7.323
20.2611 7.750
20.2874 7.844
20.3137 9.000
20.3400 8.625
20.3662 7.844
20.3925 7.344
20.4188 7.302
20.4450 6.760
20.4713 6.938
20.4976 6.688
20.5239 6.240
20.5501 6.302
20.5764 6.313
20.6027 5.792
20.6290 6.094
20.6552 5.729
20.6815 5.896
20.7078 5.344
20.7340 5.813
20.7603 5.781
20.7866 5.208
20.8129 5.458
20.8391 5.458
20.8654 5.708
20.8917 6.240
20.9179 5.594
20.9442 5.802
20.9705 5.771
20.9968 5.510
21.0230 5.865
21.0493 5.667
21.0756 5.313
21.1019 5.948
21.1281 5.854
21.1544 5.385
21.1807 5.396
21.2069 5.625
21.2332 5.292
21.2595 5.875
21.2858 5.896
21.3120 5.188
21.3383 5.823
21.3646 5.896
21.3908 5.729
21.4171 5.500
21.4434 5.604
21.4697 6.052
21.4959 5.552
21.5222 6.042
21.5485 6.240
21.5748 5.604
21.6010 5.323
21.6273 5.740
21.6536 5.573
21.6798 5.958
21.7061 6.125
21.7324 5.510
21.7587 5.896
21.7849 6.104
21.8112 5.917
21.8375 5.885
21.8637 5.948
21.8900 5.542
21.9163 5.604
21.9426 5.698
21.9688 5.531
21.9951 5.885
22.0214 5.813
22.0477 5.854
22.0739 5.406
22.1002 6.135
22.1265 5.917
22.1527 5.781
22.1790 5.604
22.2053 5.573
22.2316 5.969
22.2578 5.448
22.2841 5.531
22.3104 5.698
22.3366 5.813
22.3629 5.333
22.3892 5.708
22.4155 5.750
22.4417 5.760
22.4680 6.344
22.4943 6.427
22.5206 5.896
22.5468 5.292
22.5731 5.927
22.5994 5.448
22.6256 5.646
22.6519 5.698
22.6782 5.708
22.7045 5.958
22.7307 5.781
22.7570 5.604
22.7833 6.250
22.8096 5.719
22.8358 5.854
22.8621 5.823
22.8884 4.708
22.9146 6.125
22.9409 5.792
22.9672 5.698
22.9935 5.583
23.0197 5.594
23.0460 5.729
23.0723 6.229
23.0985 5.573
23.1248 6.000
23.1511 6.063
23.1774 5.615
23.2036 5.198
23.2299 5.573
23.2562 5.854
23.2825 5.677
23.3087 5.969
23.3350 5.865
23.3613 5.479
23.3875 5.958
23.4138 6.073
23.4401 5.875
23.4664 5.688
23.4926 5.719
23.5189 5.802
23.5452 5.823
23.5714 5.698
23.5977 5.802
23.6240 5.385
23.6503 6.094
23.6765 6.094
23.7028 5.646
23.7291 5.719
23.7554 5.875
23.7816 6.219
23.8079 5.885
23.8342 6.323
23.8604 5.823
23.8867 6.167
23.9130 5.792
23.9393 5.948
23.9655 5.604
23.9918 6.865
24.0181 5.813
24.0443 6.406
24.0706 6.396
24.0969 5.969
24.1232 5.927
24.1494 5.792
24.1757 5.688
24.2020 6.010
24.2283 6.135
24.2545 6.344
24.2808 6.854
24.3071 5.958
24.3333 6.771
24.3596 6.031
24.3859 6.229
24.4122 5.969
24.4384 6.635
24.4647 6.708
24.4910 7.219
24.5172 7.646
24.5435 8.302
24.5698 9.281
24.5961 9.573
24.6223 11.146
24.6486 11.302
24.6749 11.031
24.7012 11.365
24.7274 10.958
24.7537 9.365
24.7800 8.802
24.8062 7.948
24.8325 7.563
24.8588 6.958
24.8851 6.750
24.9113 6.177
24.9376 6.792
24.9639 6.667
24.9901 6.646
25.0164 6.302
25.0427 6.594
25.0690 5.750
25.0952 5.948
25.1215 6.146
25.1478 5.667
25.1741 5.792
25.2003 6.479
25.2266 6.052
25.2529 5.865
25.2791 5.865
25.3054 5.823
25.3317 6.510
25.3580 5.260
25.3842 5.760
25.4105 5.792
25.4368 5.688
25.4630 6.094
25.4893 6.010
25.5156 6.490
25.5419 5.688
25.5681 6.115
25.5944 6.083
25.6207 6.083
25.6470 5.604
25.6732 5.458
25.6995 5.917
25.7258 5.667
25.7520 5.750
25.7783 5.844
25.8046 5.708
25.8309 6.031
25.8571 6.115
25.8834 5.896
25.9097 5.917
25.9359 6.260
25.9622 6.135
25.9885 5.875
26.0148 6.385
26.0410 6.281
26.0673 6.458
26.0936 5.865
26.1199 5.885
26.1461 6.250
26.1724 5.667
26.1987 5.719
26.2249 6.052
26.2512 5.958
26.2775 5.854
26.3038 6.208
26.3300 6.281
26.3563 6.167
26.3826 6.260
26.4088 6.375
26.4351 5.833
26.4614 6.021
26.4877 6.052
26.5139 6.000
26.5402 5.969
26.5665 5.719
26.5928 6.198
26.6190 6.458
26.6453 6.302
26.6716 6.583
26.6978 5.813
26.7241 6.167
26.7504 5.969
26.7767 6.177
26.8029 5.740
26.8292 5.958
26.8555 6.000
26.8817 5.708
26.9080 6.094
26.9343 6.052
26.9606 5.688
26.9868 5.896
27.0131 5.875
27.0394 6.104
27.0657 6.167
27.0919 5.990
27.1182 5.885
27.1445 6.177
27.1707 6.063
27.1970 5.771
27.2233 6.083
27.2496 6.031
27.2758 5.865
27.3021 5.490
27.3284 6.313
27.3546 6.219
27.3809 5.896
27.4072 6.229
27.4335 6.375
27.4597 6.521
27.4860 6.115
27.5123 6.083
27.5386 6.313
27.5648 5.865
27.5911 6.198
27.6174 6.229
27.6436 6.510
27.6699 6.313
27.6962 6.094
27.7225 5.698
27.7487 5.896
27.7750 6.073
27.8013 5.885
27.8275 6.042
27.8538 6.094
27.8801 6.438
27.9064 6.219
27.9326 6.156
27.9589 6.573
27.9852 6.281
28.0115 5.646
28.0377 6.042
28.0640 6.094
28.0903 6.344
28.1165 6.542
28.1428 6.667
28.1691 6.000
28.1954 6.073
28.2216 6.979
28.2479 6.927
28.2742 6.542
28.3004 6.906
28.3267 6.385
28.3530 7.135
28.3793 7.938
28.4055 7.969
28.4318 8.802
28.4581 8.896
28.4844 10.052
28.5106 10.948
28.5369 11.188
28.5632 11.490
28.5894 11.333
28.6157 10.677
28.6420 10.198
28.6683 9.438
28.6945 9.094
28.7208 7.885
28.7471 8.375
28.7733 7.385
28.7996 7.510
28.8259 7.615
28.8522 7.604
28.8784 7.000
28.9047 7.177
28.9310 6.677
28.9573 7.115
28.9835 7.302
29.0098 6.958
29.0361 7.365
29.0623 7.656
29.0886 8.875
29.1149 9.438
29.1412 10.396
29.1674 11.792
29.1937 13.115
29.2200 14.094
29.2462 13.448
29.2725 13.719
29.2988 12.260
29.3251 10.646
29.3513 9.458
29.3776 8.813
29.4039 8.719
29.4302 8.031
29.4564 6.833
29.4827 7.500
29.5090 7.292
29.5352 6.729
29.5615 7.000
29.5878 6.313
29.6141 6.344
29.6403 5.781
29.6666 5.958
29.6929 6.448
29.7191 6.271
29.7454 6.604
29.7717 6.083
29.7980 6.031
29.8242 5.656
29.8505 6.583
29.8768 6.198
29.9031 6.188
29.9293 6.375
29.9556 5.875
29.9819 5.813
30.0081 6.094
30.0344 5.698
30.0607 6.313
30.0870 6.010
30.1132 6.385
30.1395 6.073
30.1658 6.177
30.1920 6.188
30.2183 6.448
30.2446 5.844
30.2709 6.000
30.2971 5.927
30.3234 5.969
30.3497 6.094
30.3760 5.385
30.4022 6.146
30.4285 6.333
30.4548 6.208
30.4810 5.594
30.5073 6.094
30.5336 5.583
30.5599 5.615
30.5861 5.969
30.6124 6.031
30.6387 6.063
30.6650 5.438
30.6912 6.698
30.7175 6.156
30.7438 6.146
30.7700 6.365
30.7963 5.771
30.8226 6.458
30.8489 6.292
30.8751 5.719
30.9014 5.729
30.9277 5.885
30.9539 6.427
30.9802 6.354
31.0065 6.604
31.0328 5.813
31.0590 5.688
31.0853 5.521
31.1116 5.688
31.1379 6.292
31.1641 5.865
31.1904 5.844
31.2167 6.313
31.2429 6.042
31.2692 5.750
31.2955 6.250
31.3218 5.792
31.3480 6.354
31.3743 5.448
31.4006 5.948
31.4268 6.167
31.4531 5.906
31.4794 5.833
31.5057 5.927
31.5319 5.708
31.5582 6.208
31.5845 5.823
31.6108 5.865
31.6370 6.104
31.6633 5.927
31.6896 5.969
31.7158 5.927
31.7421 6.188
31.7684 6.229
31.7947 6.354
31.8209 6.448
31.8472 6.375
31.8735 6.854
31.8997 6.813
31.9260 7.396
31.9523 7.896
31.9786 7.719
32.0048 8.417
32.0311 8.948
32.0574 9.563
32.0837 10.646
32.1099 10.865
32.1362 12.500
32.1625 11.885
32.1887 12.979
32.2150 13.052
32.2413 12.146
32.2676 10.792
32.2938 10.135
32.3201 9.552
32.3464 8.969
32.3726 8.521
32.3989 7.969
32.4252 8.104
32.4515 7.583
32.4777 7.510
32.5040 7.063
32.5303 7.333
32.5566 8.354
32.5828 8.354
32.6091 8.375
32.6354 8.146
32.6616 7.917
32.6879 7.615
32.7142 7.375
32.7405 7.500
32.7667 6.885
32.7930 7.052
32.8193 6.708
32.8455 6.167
32.8718 6.073
32.8981 6.125
32.9244 6.146
32.9506 6.135
32.9769 5.896
33.0032 6.281
33.0295 6.115
33.0557 5.000
33.0820 5.510
33.1083 5.729
33.1345 5.458
33.1608 5.656
33.1871 5.250
33.2134 5.917
33.2396 5.698
33.2659 5.792
33.2922 5.344
33.3184 5.010
33.3447 5.563
33.3710 5.552
33.3973 5.375
33.4235 5.500
33.4498 5.427
33.4761 5.271
33.5024 6.177
33.5286 5.229
33.5549 5.469
33.5812 5.313
33.6074 5.198
33.6337 5.708
33.6600 5.281
33.6863 5.604
33.7125 5.292
33.7388 5.448
33.7651 4.979
33.7913 5.406
33.8176 5.438
33.8439 5.375
33.8702 5.344
33.8964 5.156
33.9227 5.271
33.9490 5.344
33.9753 5.583
34.0015 5.604
34.0278 5.188
34.0541 5.292
34.0803 5.104
34.1066 5.292
34.1329 5.219
34.1592 5.229
34.1854 5.531
34.2117 5.146
34.2380 5.635
34.2642 5.313
34.2905 5.354
34.3168 5.406
34.3431 5.698
34.3693 5.667
34.3956 5.167
34.4219 5.375
34.4482 4.948
34.4744 5.344
34.5007 5.885
34.5270 5.094
34.5532 5.406
34.5795 5.229
34.6058 5.198
34.6321 5.729
34.6583 5.469
34.6846 5.417
34.7109 5.000
34.7371 5.427
34.7634 4.990
34.7897 5.125
34.8160 5.240
34.8422 5.271
34.8685 4.958
34.8948 5.188
34.9211 5.458
34.9473 5.146
34.9736 5.042
34.9999 4.875
35.0261 4.573
35.0524 5.198
35.0787 4.979
35.1050 5.229
35.1312 4.948
35.1575 5.260
35.1838 5.031
35.2100 5.250
35.2363 4.531
35.2626 5.208
35.2889 4.927
35.3151 4.823
35.3414 4.896
35.3677 5.281
35.3940 4.344
35.4202 5.354
35.4465 5.292
35.4728 5.010
35.4990 5.198
35.5253 4.969
35.5516 4.552
35.5779 4.823
35.6041 5.188
35.6304 4.979
35.6567 5.260
35.6829 5.417
35.7092 4.750
35.7355 4.896
35.7618 4.979
35.7880 5.104
35.8143 4.906
35.8406 5.000
35.8669 5.010
35.8931 4.938
35.9194 4.542
35.9457 4.875
35.9719 4.583
35.9982 5.396
36.0245 5.177
36.0508 4.802
36.0770 4.885
36.1033 5.177
36.1296 4.917
36.1558 4.865
36.1821 4.938
36.2084 4.729
36.2347 4.958
36.2609 4.823
36.2872 5.021
36.3135 5.177
36.3398 4.708
36.3660 4.573
36.3923 4.760
36.4186 5.031
36.4448 4.667
36.4711 4.802
36.4974 4.906
36.5237 5.021
36.5499 5.073
36.5762 5.219
36.6025 4.698
36.6287 5.177
36.6550 4.771
36.6813 5.229
36.7076 5.042
36.7338 5.073
36.7601 5.094
36.7864 4.958
36.8127 4.990
36.8389 4.948
36.8652 4.698
36.8915 4.917
36.9177 5.469
36.9440 5.229
36.9703 5.240
36.9966 5.042
37.0228 4.750
37.0491 5.094
37.0754 5.094
37.1016 5.427
37.1279 4.615
37.1542 4.927
37.1805 5.292
37.2067 4.583
37.2330 5.042
37.2593 4.448
37.2856 5.042
37.3118 4.979
37.3381 4.729
37.3644 4.729
37.3906 4.740
37.4169 4.885
37.4432 4.813
37.4695 4.760
37.4957 4.448
37.5220 4.677
37.5483 5.000
37.5745 4.927
37.6008 4.969
37.6271 4.510
37.6534 4.427
37.6796 4.760
37.7059 5.135
37.7322 4.813
37.7585 5.135
37.7847 4.906
37.8110 4.802
37.8373 5.010
37.8635 4.521
37.8898 4.854
37.9161 4.844
37.9424 5.167
37.9686 4.813
37.9949 5.156
38.0212 4.875
38.0474 5.490
38.0737 5.313
38.1000 4.833
38.1263 4.969
38.1525 5.490
38.1788 5.333
38.2051 4.948
38.2314 5.469
38.2576 5.010
38.2839 5.271
38.3102 5.385
38.3364 5.427
38.3627 5.250
38.3890 5.719
38.4153 5.240
38.4415 5.750
38.4678 5.740
38.4941 6.260
38.5204 6.240
38.5466 6.323
38.5729 7.250
38.5992 6.594
38.6254 6.802
38.6517 7.167
38.6780 6.719
38.7043 6.500
38.7305 6.438
38.7568 6.094
38.7831 6.469
38.8093 5.781
38.8356 5.219
38.8619 5.365
38.8882 5.615
38.9144 5.708
38.9407 5.531
38.9670 4.979
38.9933 5.521
39.0195 4.604
39.0458 5.042
39.0721 4.615
39.0983 4.708
39.1246 4.427
39.1509 4.979
39.1772 4.365
39.2034 5.323
39.2297 4.875
39.2560 4.271
39.2822 4.771
39.3085 4.479
39.3348 4.542
39.3611 4.365
39.3873 4.781
39.4136 4.896
39.4399 4.677
39.4662 4.927
39.4924 5.021
39.5187 4.469
39.5450 4.531
39.5712 4.667
39.5975 4.385
39.6238 4.552
39.6501 4.385
39.6763 4.990
39.7026 4.802
39.7289 4.750
39.7551 5.000
39.7814 5.188
39.8077 4.865
39.8340 4.604
39.8602 4.594
39.8865 4.969
39.9128 4.854
39.9391 4.740
39.9653 4.531
39.9916 5.115
40.0179 4.594
40.0441 4.688
40.0704 4.958
40.0967 4.750
40.1230 4.625
40.1492 4.938
40.1755 4.917
40.2018 4.479
40.2280 4.354
40.2543 4.719
40.2806 5.177
40.3069 4.708
40.3331 4.854
40.3594 5.010
40.3857 4.458
40.4120 4.781
40.4382 4.656
40.4645 4.563
40.4908 4.813
40.5170 4.677
40.5433 4.490
40.5696 5.073
40.5959 4.813
40.6221 4.740
40.6484 4.542
40.6747 4.833
40.7009 4.583
40.7272 4.823
40.7535 4.615
40.7798 5.177
40.8060 5.448
40.8323 5.281
40.8586 5.521
40.8849 5.656
40.9111 5.000
40.9374 5.656
40.9637 6.083
40.9899 5.677
41.0162 5.740
41.0425 5.573
41.0688 5.333
41.0950 6.083
41.1213 5.500
41.1476 5.104
41.1738 5.438
41.2001 5.990
41.2264 5.229
41.2527 5.896
41.2789 5.344
41.3052 5.708
41.3315 5.594
41.3578 5.781
41.3840 5.490
41.4103 5.302
41.4366 5.448
41.4628 5.469
41.4891 5.427
41.5154 5.469
41.5417 5.146
41.5679 5.125
41.5942 5.125
41.6205 5.083
41.6467 4.917
41.6730 5.052
41.6993 4.750
41.7256 5.146
41.7518 4.500
41.7781 4.823
41.8044 4.771
41.8307 4.448
41.8569 4.844
41.8832 4.844
41.9095 4.385
41.9357 4.667
41.9620 4.896
41.9883 4.604
42.0146 4.604
42.0408 4.865
42.0671 4.750
42.0934 4.875
42.1196 4.781
42.1459 4.646
42.1722 4.427
42.1985 4.677
42.2247 4.729
42.2510 4.771
42.2773 5.167
42.3036 4.813
42.3298 5.063
42.3561 4.771
42.3824 4.927
42.4086 4.635
42.4349 4.781
42.4612 4.552
42.4875 4.438
42.5137 4.375
42.5400 5.063
42.5663 4.104
42.5925 4.854
42.6188 4.563
42.6451 4.677
42.6714 4.802
42.6976 4.875
42.7239 4.229
42.7502 4.573
42.7765 4.646
42.8027 4.354
42.8290 4.552
42.8553 4.792
42.8815 4.229
42.9078 4.458
42.9341 4.594
42.9604 4.771
42.9866 4.521
43.0129 4.979
43.0392 4.813
43.0654 4.646
43.0917 4.323
43.1180 4.802
43.1443 4.875
43.1705 5.042
43.1968 4.823
43.2231 4.333
43.2494 4.583
43.2756 4.677
43.3019 4.583
43.3282 4.802
43.3544 4.750
43.3807 5.073
43.4070 5.240
43.4333 5.104
43.4595 5.052
43.4858 4.896
43.5121 4.698
43.5383 4.552
43.5646 4.906
43.5909 4.885
43.6172 4.708
43.6434 4.896
43.6697 4.927
43.6960 4.948
43.7223 5.000
43.7485 4.656
43.7748 4.677
43.8011 4.042
43.8273 4.500
43.8536 4.323
43.8799 4.719
43.9062 4.260
43.9324 4.698
43.9587 5.219
43.9850 4.552
44.0112 4.656
44.0375 4.927
44.0638 4.594
44.0901 4.625
44.1163 4.396
44.1426 4.354
44.1689 4.552
44.1952 4.771
44.2214 4.552
44.2477 4.688
44.2740 4.750
44.3002 4.552
44.3265 4.604
44.3528 4.667
44.3791 4.625
44.4053 4.771
44.4316 4.531
44.4579 4.979
44.4841 4.771
44.5104 4.635
44.5367 4.531
44.5630 4.813
44.5892 4.146
44.6155 4.635
44.6418 4.708
44.6681 4.990
44.6943 4.823
44.7206 4.500
44.7469 4.406
44.7731 4.552
44.7994 4.677
44.8257 4.542
44.8520 4.260
44.8782 4.240
44.9045 4.875
44.9308 4.198
44.9570 4.906
44.9833 4.042
45.0096 4.698
45.0359 4.563
45.0621 4.292
45.0884 4.583
45.1147 4.740
45.1410 4.490
45.1672 4.802
45.1935 4.365
45.2198 5.042
45.2460 4.521
45.2723 4.719
45.2986 4.750
45.3249 4.719
45.3511 4.781
45.3774 4.677
45.4037 4.708
45.4299 4.990
45.4562 4.469
45.4825 4.354
45.5088 4.906
45.5350 4.927
45.5613 4.823
45.5876 4.802
45.6139 4.469
45.6401 4.771
45.6664 5.010
45.6927 4.677
45.7189 4.333
45.7452 4.448
45.7715 4.719
45.7978 4.844
45.8240 4.938
45.8503 4.573
45.8766 4.344
45.9028 4.469
45.9291 4.625
45.9554 4.438
45.9817 4.531
46.0079 4.646
46.0342 4.677
46.0605 4.646
46.0868 4.667
46.1130 5.083
46.1393 4.938
46.1656 4.688
46.1918 5.021
46.2181 4.885
46.2444 4.646
46.2707 4.844
46.2969 4.750
46.3232 5.135
46.3495 4.563
46.3758 4.531
46.4020 4.719
46.4283 5.073
46.4546 4.552
46.4808 4.615
46.5071 4.490
46.5334 4.781
46.5597 4.823
46.5859 4.427
46.6122 4.698
46.6385 4.719
46.6647 4.458
46.6910 4.469
46.7173 4.740
46.7436 4.677
46.7698 5.250
46.7961 4.750
46.8224 4.500
46.8487 4.917
46.8749 4.802
46.9012 4.698
46.9275 4.969
46.9537 4.760
46.9800 4.885
47.0063 4.948
47.0326 5.031
47.0588 4.448
47.0851 4.646
47.1114 4.667
47.1376 4.875
47.1639 4.667
47.1902 4.375
47.2165 4.688
47.2427 4.396
47.2690 4.823
47.2953 4.625
47.3216 4.792
47.3478 4.854
47.3741 4.510
47.4004 4.708
47.4266 5.135
47.4529 4.865
47.4792 4.479
47.5055 4.573
47.5317 4.260
47.5580 4.833
47.5843 4.823
47.6105 4.906
47.6368 4.354
47.6631 4.719
47.6894 4.802
47.7156 4.625
47.7419 4.823
47.7682 4.760
47.7945 4.573
47.8207 4.760
47.8470 4.510
47.8733 4.802
47.8995 4.958
47.9258 4.344
47.9521 4.479
47.9784 4.573
48.0046 4.385
48.0309 4.396
48.0572 4.031
48.0834 4.635
48.1097 4.688
48.1360 4.760
48.1623 4.385
48.1885 4.802
48.2148 4.573
48.2411 4.500
48.2674 4.479
48.2936 4.219
48.3199 4.740
48.3462 4.510
48.3724 4.417
48.3987 5.031
48.4250 4.396
48.4513 4.479
48.4775 5.000
48.5038 4.667
48.5301 4.583
48.5563 4.708
48.5826 4.792
48.6089 5.302
48.6352 4.667
48.6614 4.604
48.6877 4.781
48.7140 4.719
48.7403 4.625
48.7665 4.813
48.7928 4.719
48.8191 4.688
48.8453 5.073
48.8716 4.656
48.8979 5.031
48.9242 4.438
48.9504 4.719
48.9767 4.740
49.0030 4.635
49.0292 4.115
49.0555 4.667
49.0818 4.479
49.1081 4.667
49.1343 4.719
49.1606 4.885
49.1869 4.333
49.2132 4.344
49.2394 5.000
49.2657 4.281
49.2920 4.344
49.3182 4.375
49.3445 4.177
49.3708 4.688
49.3971 4.542
49.4233 4.604
49.4496 4.448
49.4759 4.219
49.5021 4.667
49.5284 4.250
49.5547 4.052
49.5810 4.823
49.6072 4.656
49.6335 4.354
49.6598 4.635
49.6861 4.531
49.7123 4.969
49.7386 4.469
49.7649 4.823
49.7911 4.427
49.8174 4.531
49.8437 4.458
49.8700 4.458
49.8962 4.396
49.9225 4.458
49.9488 4.344
49.9750 4.573
50.0013 4.448
50.0276 4.385
50.0539 4.208
50.0801 4.500
50.1064 4.302
50.1327 4.365
50.1590 4.521
50.1852 4.813
50.2115 4.396
50.2378 4.604
50.2640 4.802
50.2903 4.469
50.3166 4.615
50.3429 4.469
50.3691 4.698
50.3954 4.906
50.4217 4.927
50.4479 4.865
50.4742 5.073
50.5005 5.229
50.5268 4.729
50.5530 4.677
50.5793 5.385
50.6056 5.313
50.6319 5.188
50.6581 5.198
50.6844 5.115
50.7107 5.573
50.7369 4.969
50.7632 4.740
50.7895 4.906
50.8158 4.990
50.8420 4.260
50.8683 5.115
50.8946 4.417
50.9208 4.271
50.9471 4.823
50.9734 4.646
50.9997 4.729
51.0259 4.781
51.0522 4.260
51.0785 4.792
51.1048 4.656
51.1310 4.198
51.1573 4.323
51.1836 4.552
51.2098 4.271
51.2361 4.521
51.2624 4.344
51.2887 4.594
51.3149 4.271
51.3412 4.094
51.3675 4.396
51.3937 4.406
51.4200 4.250
51.4463 4.302
51.4726 4.615
51.4988 4.167
51.5251 4.427
51.5514 4.156
51.5777 4.302
51.6039 4.427
51.6302 4.260
51.6565 4.323
51.6827 4.281
51.7090 4.250
51.7353 4.302
51.7616 4.375
51.7878 4.427
51.8141 4.000
51.8404 3.833
51.8666 4.365
51.8929 4.552
51.9192 4.385
51.9455 4.333
51.9717 4.406
51.9980 4.083
52.0243 4.010
52.0506 4.281
52.0768 4.760
52.1031 4.479
52.1294 4.333
52.1556 4.281
52.1819 4.198
52.2082 4.552
52.2345 4.635
52.2607 4.188
52.2870 4.500
52.3133 4.198
52.3395 4.458
52.3658 4.146
52.3921 3.896
52.4184 4.427
52.4446 4.375
52.4709 4.667
52.4972 4.500
52.5235 4.115
52.5497 3.885
52.5760 4.469
52.6023 4.552
52.6285 4.792
52.6548 4.479
52.6811 4.271
52.7074 4.458
52.7336 4.177
52.7599 4.344
52.7862 4.417
52.8124 4.229
52.8387 4.302
52.8650 3.979
52.8913 4.052
52.9175 4.292
52.9438 4.479
52.9701 4.167
52.9964 4.729
53.0226 4.250
53.0489 4.302
53.0752 4.406
53.1014 4.219
53.1277 3.969
53.1540 4.385
53.1803 4.448
53.2065 4.240
53.2328 4.417
53.2591 4.531
53.2853 4.156
53.3116 4.427
53.3379 4.708
53.3642 4.417
53.3904 4.427
53.4167 4.490
53.4430 4.313
53.4693 4.260
53.4955 3.854
53.5218 3.938
53.5481 4.260
53.5743 4.385
53.6006 3.740
53.6269 4.333
53.6532 4.104
53.6794 4.135
53.7057 4.250
53.7320 4.375
53.7583 4.073
53.7845 4.115
53.8108 4.344
53.8371 4.281
53.8633 4.604
53.8896 3.948
53.9159 4.042
53.9422 3.792
53.9684 4.479
53.9947 3.625
54.0210 4.333
54.0472 4.052
54.0735 4.333
54.0998 3.990
54.1261 4.063
54.1523 4.250
54.1786 4.031
54.2049 3.990
54.2312 4.000
54.2574 4.031
54.2837 4.135
54.3100 3.729
54.3362 4.073
54.3625 4.156
54.3888 3.854
54.4151 4.000
54.4413 4.073
54.4676 4.219
54.4939 3.823
54.5201 3.844
54.5464 3.885
54.5727 3.875
54.5990 3.844
54.6252 4.104
54.6515 3.906
54.6778 4.302
54.7041 3.854
54.7303 3.906
54.7566 4.042
54.7829 4.073
54.8091 3.990
54.8354 3.844
54.8617 3.833
54.8880 3.917
54.9142 3.906
54.9405 4.052
54.9668 4.240
54.9930 3.938
55.0193 4.125
55.0456 4.573
55.0719 4.271
55.0981 4.594
55.1244 3.906
55.1507 4.344
55.1770 4.219
55.2032 4.115
55.2295 4.396
55.2558 4.271
55.2820 4.385
55.3083 3.906
55.3346 4.135
55.3609 4.510
55.3871 4.198
55.4134 3.854
55.4397 3.719
55.4659 4.135
55.4922 3.896
55.5185 3.823
55.5448 3.500
55.5710 3.771
55.5973 3.979
55.6236 3.875
55.6499 3.615
55.6761 3.729
55.7024 3.740
55.7287 3.729
55.7549 3.688
55.7812 3.781
55.8075 3.698
55.8338 3.698
55.8600 3.521
55.8863 3.604
55.9126 4.125
55.9388 3.990
55.9651 3.927
55.9914 3.740
56.0177 3.625
56.0439 3.563
56.0702 3.865
56.0965 3.750
56.1228 3.833
56.1490 3.531
56.1753 3.625
56.2016 3.635
56.2278 4.208
56.2541 3.844
56.2804 3.667
56.3067 3.760
56.3329 3.969
56.3592 3.583
56.3855 4.000
56.4117 3.219
56.4380 3.698
56.4643 3.771
56.4906 3.427
56.5168 3.375
56.5431 3.781
56.5694 3.448
56.5957 3.969
56.6219 3.875
56.6482 3.698
56.6745 3.583
56.7007 3.448
56.7270 3.458
56.7533 3.677
56.7796 3.573
56.8058 3.490
56.8321 3.469
56.8584 3.698
56.8846 3.833
56.9109 3.865
56.9372 3.479
56.9635 3.542
56.9897 3.625
57.0160 3.771
57.0423 3.802
57.0686 3.813
57.0948 3.490
57.1211 3.448
57.1474 3.677
57.1736 3.781
57.1999 3.427
57.2262 3.979
57.2525 3.625
57.2787 3.594
57.3050 3.427
57.3313 3.542
57.3575 3.854
57.3838 3.510
57.4101 3.677
57.4364 3.750
57.4626 3.771
57.4889 3.906
57.5152 3.552
57.5415 3.635
57.5677 3.396
57.5940 3.458
57.6203 3.177
57.6465 3.656
57.6728 3.500
57.6991 3.448
57.7254 3.458
57.7516 3.833
57.7779 3.625
57.8042 3.385
57.8304 3.333
57.8567 3.510
57.8830 3.792
57.9093 3.604
57.9355 3.667
57.9618 3.531
57.9881 3.750
58.0144 3.896
58.0406 3.656
58.0669 3.719
58.0932 3.917
58.1194 3.563
58.1457 3.427
58.1720 3.448
58.1983 3.292
58.2245 3.938
58.2508 3.833
58.2771 3.688
58.3033 3.604
58.3296 3.625
58.3559 3.594
58.3822 3.531
58.4084 3.490
58.4347 3.594
58.4610 3.521
58.4873 3.698
58.5135 3.667
58.5398 3.438
58.5661 3.510
58.5923 3.250
58.6186 3.813
58.6449 3.313
58.6712 3.490
58.6974 3.313
58.7237 3.635
58.7500 3.750
58.7762 3.604
58.8025 3.656
58.8288 3.552
58.8551 3.615
58.8813 3.646
58.9076 3.646
58.9339 3.448
58.9602 3.844
58.9864 3.542
59.0127 3.646
59.0390 3.438
59.0652 3.802
59.0915 3.625
59.1178 3.292
59.1441 4.042
59.1703 3.844
59.1966 3.521
59.2229 3.313
59.2491 3.896
59.2754 3.458
59.3017 3.656
59.3280 3.885
59.3542 3.583
59.3805 3.573
59.4068 3.740
59.4331 3.729
59.4593 4.021
59.4856 3.885
59.5119 3.927
59.5381 3.927
59.5644 3.688
59.5907 4.094
59.6170 4.229
59.6432 3.948
59.6695 3.854
59.6958 3.677
59.7220 3.792
59.7483 3.990
59.7746 4.104
59.8009 4.052
59.8271 4.031
59.8534 4.208
59.8797 4.198
59.9060 3.813
59.9322 4.073
59.9585 4.104
59.9848 3.740
60.0110 4.271
60.0373 4.125
60.0636 4.156
60.0899 4.281
60.1161 3.781
60.1424 3.844
60.1687 3.646
60.1949 4.010
60.2212 3.938
60.2475 3.896
60.2738 3.896
60.3000 3.792
60.3263 3.667
60.3526 3.792
60.3789 4.031
60.4051 3.563
60.4314 3.438
60.4577 3.292
60.4839 3.354
60.5102 3.417
60.5365 3.656
60.5628 3.604
60.5890 3.781
60.6153 3.729
60.6416 3.823
60.6678 3.802
60.6941 3.771
60.7204 3.438
60.7467 3.594
60.7729 3.260
60.7992 3.677
60.8255 3.323
60.8518 3.698
60.8780 3.427
60.9043 3.760
60.9306 3.833
60.9568 3.458
60.9831 3.458
61.0094 3.500
61.0357 3.333
61.0619 3.635
61.0882 3.333
61.1145 3.521
61.1407 3.375
61.1670 4.000
61.1933 3.615
61.2196 3.719
61.2458 3.396
61.2721 3.885
61.2984 4.042
61.3247 3.677
61.3509 3.219
61.3772 3.729
61.4035 3.458
61.4297 3.635
61.4560 3.531
61.4823 3.813
61.5086 3.635
61.5348 3.927
61.5611 3.719
61.5874 3.646
61.6137 3.563
61.6399 3.771
61.6662 3.552
61.6925 3.708
61.7187 3.573
61.7450 3.240
61.7713 3.521
61.7976 3.448
61.8238 3.594
61.8501 3.552
61.8764 3.177
61.9026 3.135
61.9289 3.313
61.9552 3.417
61.9815 3.365
62.0077 3.458
62.0340 3.219
62.0603 3.365
62.0866 3.396
62.1128 2.958
62.1391 3.542
62.1654 3.156
62.1916 3.438
62.2179 3.615
62.2442 3.250
62.2705 3.625
62.2967 3.479
62.3230 3.667
62.3493 3.760
62.3755 3.094
62.4018 3.354
62.4281 3.125
62.4544 3.417
62.4806 3.260
62.5069 3.458
62.5332 3.448
62.5595 3.313
62.5857 3.656
62.6120 3.281
62.6383 3.177
62.6645 3.271
62.6908 3.344
62.7171 3.406
62.7434 3.510
62.7696 3.333
62.7959 3.073
62.8222 3.521
62.8484 3.479
62.8747 3.344
62.9010 3.448
62.9273 3.688
62.9535 3.031
62.9798 3.313
63.0061 3.438
63.0324 3.448
63.0586 3.365
63.0849 3.521
63.1112 3.281
63.1374 3.198
63.1637 3.760
63.1900 3.583
63.2163 3.208
63.2425 3.458
63.2688 3.177
63.2951 3.375
63.3213 3.427
63.3476 3.479
63.3739 3.427
63.4002 3.542
63.4264 3.031
63.4527 2.875
63.4790 3.406
63.5053 3.115
63.5315 3.542
63.5578 3.281
63.5841 3.615
63.6103 2.979
63.6366 3.615
63.6629 3.198
63.6892 3.552
63.7154 3.375
63.7417 3.260
63.7680 3.260
63.7942 3.021
63.8205 3.125
63.8468 3.021
63.8731 3.292
63.8993 3.188
63.9256 2.969
63.9519 3.177
63.9782 3.188
64.0044 3.188
64.0307 3.042
64.0570 3.219
64.0832 3.615
64.1095 3.208
64.1358 3.604
64.1621 3.635
64.1883 3.417
64.2146 3.406
64.2409 3.271
64.2671 3.521
64.2934 3.115
64.3197 3.406
64.3460 3.740
64.3722 3.271
64.3985 3.198
64.4248 3.740
64.4511 3.135
64.4773 3.146
64.5036 3.438
64.5299 3.323
64.5561 3.458
64.5824 3.385
64.6087 3.229
64.6350 3.052
64.6612 3.073
64.6875 3.146
64.7138 3.125
64.7400 3.385
64.7663 2.792
64.7926 3.208
64.8189 3.469
64.8451 3.167
64.8714 3.396
64.8977 3.500
64.9240 3.156
64.9502 3.500
64.9765 3.146
65.0028 3.260
65.0290 3.104
65.0553 3.344
65.0816 3.365
65.1079 3.333
65.1341 3.042
65.1604 3.125
65.1867 3.469
65.2129 3.635
65.2392 3.177
65.2655 3.302
65.2918 3.156
65.3180 3.406
65.3443 3.125
65.3706 3.260
65.3969 3.198
65.4231 3.104
65.4494 3.250
65.4757 3.250
65.5019 3.240
65.5282 3.042
65.5545 3.594
65.5808 3.188
65.6070 3.323
65.6333 3.229
65.6596 3.167
65.6858 3.167
65.7121 3.438
65.7384 3.542
65.7647 2.802
65.7909 3.365
65.8172 3.438
65.8435 3.458
65.8698 3.385
65.8960 3.302
65.9223 3.083
65.9486 3.365
65.9748 3.021
66.0011 3.323
66.0274 3.458
66.0537 3.604
66.0799 3.354
66.1062 3.510
66.1325 3.063
66.1587 3.510
66.1850 3.115
66.2113 3.250
66.2376 3.094
66.2638 3.229
66.2901 3.323
66.3164 3.115
66.3427 3.563
66.3689 3.323
66.3952 3.344
66.4215 3.333
66.4477 3.531
66.4740 3.490
66.5003 3.208
66.5266 3.510
66.5528 3.281
66.5791 3.396
66.6054 3.594
66.6316 3.938
66.6579 3.458
66.6842 3.250
66.7105 3.146
66.7367 3.708
66.7630 3.448
66.7893 3.375
66.8156 3.281
66.8418 3.531
66.8681 3.385
66.8944 3.385
66.9206 3.198
66.9469 3.240
66.9732 3.625
66.9995 3.385
67.0257 3.385
67.0520 3.583
67.0783 3.198
67.1045 3.250
67.1308 3.292
67.1571 3.281
67.1834 3.208
67.2096 3.198
67.2359 3.417
67.2622 3.177
67.2885 3.125
67.3147 3.792
67.3410 3.406
67.3673 3.542
67.3935 3.115
67.4198 2.948
67.4461 2.917
67.4724 3.021
67.4986 2.979
67.5249 2.865
67.5512 3.115
67.5774 3.021
67.6037 3.458
67.6300 3.563
67.6563 2.990
67.6825 3.385
67.7088 3.156
67.7351 3.260
67.7614 2.781
67.7876 3.010
67.8139 3.219
67.8402 2.979
67.8664 3.135
67.8927 3.156
67.9190 3.156
67.9453 3.604
67.9715 2.802
67.9978 3.271
68.0241 3.031
68.0503 3.021
68.0766 3.125
68.1029 3.156
68.1292 3.021
68.1554 3.240
68.1817 3.510
68.2080 3.198
68.2343 3.146
68.2605 3.250
68.2868 3.073
68.3131 3.323
68.3393 2.865
68.3656 3.260
68.3919 3.260
68.4182 2.958
68.4444 2.969
68.4707 2.917
68.4970 2.958
68.5232 2.885
68.5495 3.250
68.5758 3.281
68.6021 3.323
68.6283 2.896
68.6546 3.417
68.6809 3.198
68.7072 3.083
68.7334 2.917
68.7597 3.417
68.7860 3.104
68.8122 3.042
68.8385 3.219
68.8648 3.500
68.8911 3.292
68.9173 3.073
68.9436 3.240
68.9699 3.396
68.9961 3.146
69.0224 3.427
69.0487 3.260
69.0750 3.323
69.1012 2.938
69.1275 3.115
69.1538 2.990
69.1801 2.854
69.2063 3.104
69.2326 3.125
69.2589 3.250
69.2851 3.313
69.3114 2.958
69.3377 2.802
69.3640 3.021
69.3902 3.427
69.4165 3.302
69.4428 3.031
69.4691 3.052
69.4953 2.990
69.5216 3.000
69.5479 2.979
69.5741 2.990
69.6004 3.156
69.6267 3.250
69.6530 3.135
69.6792 2.979
69.7055 3.198
69.7318 3.042
69.7580 2.896
69.7843 3.365
69.8106 3.146
69.8369 3.135
69.8631 3.260
69.8894 2.875
69.9157 2.948
69.9420 3.010
69.9682 3.313
69.9945 3.042
70.0208 2.938
70.0470 3.042
70.0733 3.188
70.0996 3.094
70.1259 3.063
70.1521 3.292
70.1784 3.188
70.2047 2.958
70.2309 2.844
70.2572 2.865
70.2835 2.948
70.3098 2.865
70.3360 3.323
70.3623 2.938
70.3886 3.135
70.4149 2.865
70.4411 3.010
70.4674 3.021
70.4937 2.958
70.5199 2.979
70.5462 3.146
70.5725 3.000
70.5988 2.969
70.6250 2.885
70.6513 2.969
70.6776 2.958
70.7038 2.969
70.7301 3.000
70.7564 2.938
70.7827 2.958
70.8089 3.083
70.8352 2.948
70.8615 3.365
70.8878 3.073
70.9140 3.083
70.9403 3.083
70.9666 2.708
70.9928 2.542
71.0191 2.823
71.0454 2.990
71.0717 2.948
71.0979 2.885
71.1242 2.802
71.1505 3.104
71.1767 2.854
71.2030 3.167
71.2293 2.948
71.2556 2.875
71.2818 2.740
71.3081 3.177
71.3344 3.135
71.3607 3.073
71.3869 3.188
71.4132 3.458
71.4395 3.094
71.4657 3.052
71.4920 2.896
71.5183 3.208
71.5446 3.000
71.5708 3.052
71.5971 3.208
71.6234 2.948
71.6496 3.156
71.6759 2.865
71.7022 3.260
71.7285 2.990
71.7547 2.990
71.7810 3.083
71.8073 3.333
71.8336 3.250
71.8598 3.010
71.8861 3.063
71.9124 3.042
71.9386 3.042
71.9649 2.563
71.9912 2.813
72.0175 3.219
72.0437 3.094
72.0700 2.802
72.0963 3.094
72.1225 2.906
72.1488 3.083
72.1751 3.010
72.2014 3.104
72.2276 2.833
72.2539 2.927
72.2802 2.438
72.3065 3.208
72.3327 3.083
72.3590 3.073
72.3853 2.615
72.4115 2.906
72.4378 2.896
72.4641 2.802
72.4904 2.854
72.5166 2.938
72.5429 2.740
72.5692 3.156
72.5954 2.833
72.6217 2.771
72.6480 3.156
72.6743 2.875
72.7005 3.021
72.7268 3.021
72.7531 2.719
72.7794 3.115
72.8056 2.875
72.8319 3.167
72.8582 2.781
72.8844 2.615
72.9107 2.844
72.9370 3.042
72.9633 2.885
72.9895 3.125
73.0158 2.948
73.0421 2.990
73.0683 2.979
73.0946 3.042
73.1209 2.885
73.1472 2.875
73.1734 2.990
73.1997 3.188
73.2260 3.052
73.2523 2.771
73.2785 2.510
73.3048 2.729
73.3311 2.760
73.3573 2.927
73.3836 2.833
73.4099 3.031
73.4362 2.771
73.4624 2.729
73.4887 2.771
73.5150 2.583
73.5412 2.823
73.5675 2.688
73.5938 2.771
73.6201 2.833
73.6463 2.948
73.6726 2.917
73.6989 2.865
73.7252 2.948
73.7514 3.021
73.7777 2.885
73.8040 2.760
73.8302 2.698
73.8565 2.906
73.8828 2.615
73.9091 2.948
73.9353 2.708
73.9616 2.750
73.9879 2.938
74.0141 2.823
74.0404 2.792
74.0667 3.083
74.0930 2.792
74.1192 2.865
74.1455 2.656
74.1718 2.802
74.1981 2.719
74.2243 2.625
74.2506 2.677
74.2769 2.615
74.3031 2.958
74.3294 2.667
74.3557 2.740
74.3820 2.802
74.4082 2.885
74.4345 2.979
74.4608 2.885
74.4870 2.833
74.5133 2.906
74.5396 2.833
74.5659 3.083
74.5921 2.677
74.6184 2.667
74.6447 2.854
74.6710 2.750
74.6972 2.438
74.7235 2.625
74.7498 2.969
74.7760 2.906
74.8023 2.927
74.8286 2.646
74.8549 3.125
74.8811 2.854
74.9074 2.896
74.9337 2.865
74.9599 2.854
74.9862 2.958
75.0125 2.990
75.0388 2.865
75.0650 2.719
75.0913 2.958
75.1176 2.771
75.1439 2.635
75.1701 2.938
75.1964 2.510
75.2227 3.094
75.2489 2.708
75.2752 2.542
75.3015 2.542
75.3278 2.563
75.3540 2.594
75.3803 2.865
75.4066 2.896
75.4328 2.906
75.4591 2.885
75.4854 2.771
75.5117 2.948
75.5379 2.781
75.5642 2.844
75.5905 2.969
75.6168 2.479
75.6430 2.688
75.6693 2.583
75.6956 2.563
75.7218 2.573
75.7481 2.948
75.7744 2.656
75.8007 2.781
75.8269 2.406
75.8532 2.792
75.8795 2.667
75.9057 2.760
75.9320 2.625
75.9583 2.594
75.9846 2.896
76.0108 2.719
76.0371 2.479
76.0634 2.740
76.0897 2.688
76.1159 2.906
76.1422 2.927
76.1685 2.885
76.1947 2.656
76.2210 2.615
76.2473 3.010
76.2736 3.031
76.2998 2.896
76.3261 2.948
76.3524 2.844
76.3786 3.031
76.4049 2.604
76.4312 2.938
76.4575 2.583
76.4837 2.573
76.5100 3.021
76.5363 2.594
76.5626 2.906
76.5888 2.958
76.6151 3.000
76.6414 3.260
76.6676 2.667
76.6939 2.844
76.7202 2.646
76.7465 2.844
76.7727 2.844
76.7990 3.135
76.8253 2.948
76.8515 2.917
76.8778 3.063
76.9041 2.833
76.9304 2.656
76.9566 2.979
76.9829 2.354
77.0092 2.677
77.0355 2.656
77.0617 2.875
77.0880 2.417
77.1143 2.698
77.1405 3.042
77.1668 2.677
77.1931 2.417
77.2194 2.563
77.2456 2.573
77.2719 2.531
77.2982 2.646
77.3245 2.750
77.3507 2.521
77.3770 2.979
77.4033 2.948
77.4295 2.938
77.4558 2.615
77.4821 2.844
77.5084 2.865
77.5346 2.813
77.5609 2.656
77.5872 2.813
77.6134 2.500
77.6397 2.656
77.6660 2.510
77.6923 2.802
77.7185 2.510
77.7448 2.948
77.7711 2.771
77.7974 2.927
77.8236 2.583
77.8499 2.375
77.8762 2.396
77.9024 2.625
77.9287 2.813
77.9550 2.802
77.9813 2.521
78.0075 2.729
78.0338 2.573
78.0601 2.698
78.0863 2.521
78.1126 2.594
78.1389 2.500
78.1652 2.448
78.1914 2.469
78.2177 2.698
78.2440 2.438
78.2703 2.594
78.2965 2.646
78.3228 2.583
78.3491 2.469
78.3753 2.583
78.4016 2.573
78.4279 2.417
78.4542 2.750
78.4804 2.740
78.5067 2.458
78.5330 2.583
78.5592 2.719
78.5855 2.260
78.6118 2.563
78.6381 2.542
78.6643 2.625
78.6906 2.729
78.7169 2.708
78.7432 2.563
78.7694 2.552
78.7957 2.448
78.8220 2.750
78.8482 2.698
78.8745 2.458
78.9008 2.552
78.9271 2.615
78.9533 2.427
78.9796 2.438
79.0059 2.531
79.0321 2.604
79.0584 2.823
79.0847 2.677
79.1110 2.500
79.1372 2.677
79.1635 2.427
79.1898 2.531
79.2161 2.635
79.2423 2.563
79.2686 2.479
79.2949 2.438
79.3211 2.302
79.3474 2.219
79.3737 2.250
79.4000 2.313
79.4262 2.719
79.4525 2.333
79.4788 2.729
79.5050 2.125
79.5313 2.625
79.5576 2.531
79.5839 2.156
79.6101 2.698
79.6364 2.688
79.6627 2.677
79.6890 2.510
79.7152 2.365
79.7415 2.677
79.7678 2.542
79.7940 2.604
79.8203 2.396
79.8466 2.302
79.8729 2.469
79.8991 2.698
79.9254 2.635
79.9517 2.677
79.9779 2.354
80.0042 2.583
80.0305 2.865
80.0568 2.302
80.0830 2.677
80.1093 2.510
80.1356 2.625
80.1619 2.813
80.1881 2.448
80.2144 2.635
80.2407 2.771
80.2669 2.708
80.2932 2.552
80.3195 2.635
80.3458 2.521
80.3720 2.281
80.3983 2.646
80.4246 2.646
80.4508 2.500
80.4771 2.854
80.5034 2.635
80.5297 2.563
80.5559 2.479
80.5822 2.271
80.6085 2.552
80.6348 2.458
80.6610 2.646
80.6873 2.813
80.7136 2.521
80.7398 2.521
80.7661 2.240
80.7924 2.354
80.8187 2.688
80.8449 2.385
80.8712 2.229
80.8975 2.406
80.9237 2.333
80.9500 2.719
80.9763 2.615
81.0026 2.104
81.0288 2.479
81.0551 2.813
81.0814 2.458
81.1077 2.500
81.1339 2.521
81.1602 2.469
81.1865 2.510
81.2127 2.469
81.2390 2.594
81.2653 2.490
81.2916 2.469
81.3178 2.667
81.3441 2.490
81.3704 2.969
81.3966 2.490
81.4229 2.469
81.4492 2.344
81.4755 2.427
81.5017 2.750
81.5280 2.521
81.5543 2.521
81.5806 2.406
81.6068 2.365
81.6331 2.604
81.6594 2.302
81.6856 2.594
81.7119 2.531
81.7382 2.677
81.7645 2.542
81.7907 2.688
81.8170 2.667
81.8433 2.125
81.8695 2.625
81.8958 2.365
81.9221 2.365
81.9484 2.302
81.9746 2.385
82.0009 2.396
82.0272 2.646
82.0535 2.510
82.0797 2.656
82.1060 2.740
82.1323 2.594
82.1585 2.563
82.1848 2.479
82.2111 2.396
82.2374 2.677
82.2636 2.677
82.2899 2.281
82.3162 2.490
82.3424 2.281
82.3687 2.521
82.3950 2.479
82.4213 2.323
82.4475 2.500
82.4738 2.510
82.5001 2.625
82.5264 2.688
82.5526 2.323
82.5789 2.219
82.6052 2.823
82.6314 2.281
82.6577 2.146
82.6840 2.604
82.7103 2.427
82.7365 2.115
82.7628 2.510
82.7891 2.646
82.8153 2.375
82.8416 2.635
82.8679 2.385
82.8942 2.469
82.9204 2.417
82.9467 2.552
82.9730 2.260
82.9993 2.302
83.0255 2.521
83.0518 2.521
83.0781 2.563
83.1043 2.510
83.1306 2.396
83.1569 2.583
83.1832 2.448
83.2094 2.708
83.2357 2.427
83.2620 2.510
83.2882 2.563
83.3145 2.521
83.3408 2.448
83.3671 2.063
83.3933 2.552
83.4196 2.271
83.4459 2.448
83.4722 2.604
83.4984 2.427
83.5247 2.479
83.5510 2.469
83.5772 2.813
83.6035 2.500
83.6298 2.333
83.6561 2.198
83.6823 2.385
83.7086 2.563
83.7349 2.375
83.7611 2.104
83.7874 2.490
83.8137 2.479
83.8400 2.656
83.8662 2.333
83.8925 2.510
83.9188 2.656
83.9451 2.427
83.9713 2.427
83.9976 2.406
84.0239 2.323
84.0501 2.365
84.0764 2.177
84.1027 2.510
84.1290 2.240
84.1552 2.448
84.1815 2.479
84.2078 2.313
84.2340 2.188
84.2603 2.313
84.2866 2.375
84.3129 2.521
84.3391 2.354
84.3654 2.354
84.3917 2.438
84.4180 2.594
84.4442 2.229
84.4705 2.292
84.4968 2.563
84.5230 2.688
84.5493 2.698
84.5756 2.573
84.6019 2.510
84.6281 2.604
84.6544 2.542
84.6807 2.510
84.7069 2.531
84.7332 2.469
84.7595 2.500
84.7858 2.365
84.8120 2.563
84.8383 2.365
84.8646 2.115
84.8909 2.479
84.9171 2.396
84.9434 2.417
84.9697 2.719
84.9959 2.563
85.0222 2.344
85.0485 2.344
85.0748 2.646
85.1010 2.438
85.1273 2.448
85.1536 2.448
85.1799 2.313
85.2061 2.188
85.2324 2.385
85.2587 2.240
85.2849 2.313
85.3112 2.313
85.3375 2.438
85.3638 2.719
85.3900 2.594
85.4163 2.281
85.4426 2.188
85.4688 2.198
85.4951 2.469
85.5214 2.510
85.5477 2.083
85.5739 2.156
85.6002 2.396
85.6265 2.177
85.6528 2.156
85.6790 2.417
85.7053 2.521
85.7316 2.156
85.7578 2.458
85.7841 2.333
85.8104 2.458
85.8367 2.490
85.8629 2.354
85.8892 2.250
85.9155 2.135
85.9417 2.167
85.9680 2.625
85.9943 2.260
86.0206 2.271
86.0468 2.375
86.0731 2.500
86.0994 2.552
86.1257 2.385
86.1519 2.385
86.1782 2.542
86.2045 2.271
86.2307 2.510
86.2570 2.104
86.2833 2.500
86.3096 2.198
86.3358 2.479
86.3621 2.188
86.3884 2.250
86.4146 2.427
86.4409 2.292
86.4672 2.365
86.4935 2.292
86.5197 2.208
86.5460 2.469
86.5723 2.354
86.5986 2.521
86.6248 2.354
86.6511 2.292
86.6774 2.406
86.7036 2.219
86.7299 2.573
86.7562 2.313
86.7825 2.469
86.8087 2.677
86.8350 2.500
86.8613 2.448
86.8875 2.375
86.9138 2.229
86.9401 2.375
86.9664 2.396
86.9926 2.750
87.0189 2.313
87.0452 2.198
87.0715 2.271
87.0977 2.625
87.1240 2.313
87.1503 2.385
87.1765 2.281
87.2028 2.635
87.2291 2.677
87.2554 2.479
87.2816 2.385
87.3079 2.417
87.3342 2.365
87.3604 2.385
87.3867 2.344
87.4130 2.396
87.4393 2.250
87.4655 2.823
87.4918 2.417
87.5181 2.396
87.5444 2.438
87.5706 2.438
87.5969 2.146
87.6232 2.427
87.6494 2.188
87.6757 2.469
87.7020 2.427
87.7283 2.313
87.7545 2.302
87.7808 2.427
87.8071 2.552
87.8333 2.458
87.8596 2.500
87.8859 1.938
87.9122 2.240
87.9384 2.125
87.9647 2.656
87.9910 2.271
88.0173 2.448
88.0435 2.250
88.0698 2.375
88.0961 2.292
88.1223 2.448
88.1486 2.563
88.1749 2.615
88.2012 2.313
88.2274 2.438
88.2537 2.385
88.2800 2.385
88.3062 2.552
88.3325 2.385
88.3588 2.448
88.3851 2.573
88.4113 2.375
88.4376 2.083
88.4639 2.219
88.4902 2.344
88.5164 2.323
88.5427 2.448
88.5690 2.260
88.5952 2.198
88.6215 2.542
88.6478 2.104
88.6741 1.990
88.7003 2.521
88.7266 2.333
88.7529 2.677
88.7791 2.438
88.8054 2.208
88.8317 2.552
88.8580 2.698
88.8842 2.188
88.9105 2.344
88.9368 2.115
88.9631 2.448
88.9893 2.656
89.0156 2.271
89.0419 2.583
89.0681 2.635
89.0944 2.448
89.1207 2.490
89.1470 2.615
89.1732 2.469
89.1995 2.583
89.2258 2.469
89.2520 2.240
89.2783 2.167
89.3046 2.396
89.3309 2.240
89.3571 2.313
89.3834 2.385
89.4097 2.375
89.4360 2.323
89.4622 2.292
89.4885 2.438
89.5148 2.302
89.5410 2.333
89.5673 2.177
89.5936 1.958
89.6199 2.396
89.6461 2.208
89.6724 2.333
89.6987 2.281
89.7249 2.240
89.7512 2.479
89.7775 2.500
89.8038 2.552
89.8300 2.302
89.8563 2.417
89.8826 2.594
89.9089 2.552
89.9351 2.500
89.9614 2.552
89.9877 2.500
